% Time (s),Altitude (ft),Vertical velocity (ft/s),Vertical acceleration (ft/s²),Lateral distance (ft),Mach number (?)
0,0,0,41.993,0,0.0197
2e-3,8.3985e-5,0.083985,189.92,5.8728e-6,0.019705
4e-3,6.3181e-4,0.46384,319.37,4.418e-5,0.019733
6e-3,0.0021983,1.1026,337.89,1.5372e-4,0.019794
8e-3,0.0050794,1.7785,337.93,3.5519e-4,0.019875
0.01,0.0093123,2.4544,337.97,6.5118e-4,0.019975
0.012,0.014897,3.1304,338.01,0.0010417,0.020092
0.014,0.021834,3.8065,338.05,0.0015268,0.020227
0.016,0.030123,4.4827,338.1,0.0021064,0.02038
0.018,0.039765,5.159,338.14,0.0027806,0.020549
0.02,0.050759,5.8353,338.18,0.0035494,0.020734
0.022,0.063106,6.5118,338.22,0.0044128,0.020936
0.024,0.076807,7.1883,338.26,0.0053708,0.021153
0.026,0.09186,7.8649,338.3,0.0064235,0.021385
0.028,0.10827,8.5416,338.35,0.0075707,0.021632
0.03,0.12603,9.2183,338.39,0.0088126,0.021893
0.032,0.14514,9.8952,338.43,0.010149,0.022167
0.034,0.16561,10.572,338.47,0.01158,0.022455
0.036,0.18743,11.249,338.51,0.013106,0.022755
0.038,0.2106,11.926,338.55,0.014727,0.023068
0.04,0.23513,12.603,338.59,0.016442,0.023392
0.042,0.26102,13.281,338.63,0.018252,0.023727
0.044,0.28826,13.958,338.68,0.020157,0.024073
0.046,0.31685,14.635,338.72,0.022156,0.024429
0.048,0.3468,15.313,338.76,0.02425,0.024795
0.05,0.3781,15.991,338.8,0.026439,0.025171
0.052,0.41076,16.668,338.84,0.028723,0.025555
0.054,0.44477,17.346,338.88,0.031102,0.025948
0.056,0.48014,18.024,338.92,0.033575,0.02635
0.058,0.51687,18.702,338.96,0.036143,0.026759
0.06,0.55495,19.38,339,0.038806,0.027176
0.062,0.59439,20.058,339.04,0.041564,0.0276
0.064,0.63518,20.736,339.08,0.044416,0.02803
0.066,0.67733,21.414,339.12,0.047364,0.028468
0.068,0.72084,22.093,339.16,0.050406,0.028911
0.07,0.7657,22.771,339.2,0.053543,0.029361
0.072,0.81192,23.449,339.24,0.056775,0.029816
0.074,0.8595,24.128,339.28,0.060102,0.030277
0.076,0.90843,24.807,339.32,0.063524,0.030743
0.078,0.95873,25.485,339.36,0.067041,0.031214
0.08,1.0104,26.164,339.41,0.070652,0.031689
0.082,1.0634,26.843,339.45,0.074359,0.03217
0.084,1.1177,27.522,339.49,0.078161,0.032654
0.086,1.1735,28.201,339.53,0.082057,0.033143
0.088,1.2306,28.88,339.57,0.086049,0.033636
0.09,1.289,29.559,339.61,0.090135,0.034133
0.092,1.3488,30.239,339.65,0.094317,0.034633
0.094,1.4099,30.918,339.69,0.098593,0.035137
0.096,1.4725,31.597,339.72,0.10296,0.035644
0.098,1.5363,32.277,339.76,0.10743,0.036155
0.1,1.6016,32.957,339.8,0.11199,0.036668
0.102,1.6682,33.636,339.84,0.11665,0.037185
0.104,1.7361,34.316,339.88,0.1214,0.037704
0.106,1.8054,34.996,339.92,0.12625,0.038226
0.108,1.8761,35.676,339.96,0.13119,0.038751
0.11,1.9481,36.356,340,0.13623,0.039278
0.112,2.0215,37.036,340.04,0.14136,0.039808
0.114,2.0963,37.716,340.08,0.14659,0.04034
0.116,2.1724,38.396,340.12,0.15191,0.040874
0.118,2.2499,39.077,340.16,0.15733,0.041411
0.12,2.3287,39.757,340.2,0.16284,0.04195
0.122,2.4089,40.437,340.24,0.16845,0.04249
0.124,2.4904,41.118,340.28,0.17415,0.043033
0.126,2.5734,41.799,340.32,0.17995,0.043577
0.128,2.6576,42.479,340.36,0.18584,0.044123
0.13,2.7433,43.16,340.4,0.19183,0.044671
0.132,2.8303,43.841,340.44,0.19791,0.045221
0.134,2.9186,44.522,340.48,0.20409,0.045772
0.136,3.0084,45.203,340.51,0.21037,0.046325
0.138,3.0995,45.884,340.55,0.21673,0.04688
0.14,3.1919,46.565,340.59,0.2232,0.047436
0.142,3.2857,47.247,340.63,0.22976,0.047993
0.144,3.3809,47.928,340.67,0.23641,0.048551
0.146,3.4774,48.609,340.71,0.24317,0.049111
0.148,3.5753,49.291,340.75,0.25001,0.049673
0.15,3.6746,49.972,340.79,0.25695,0.050235
0.152,3.7752,50.654,340.83,0.26399,0.050799
0.154,3.8772,51.336,340.87,0.27112,0.051364
0.156,3.9806,52.018,340.91,0.27835,0.05193
0.158,4.0853,52.699,340.95,0.28567,0.052497
0.16,4.1914,53.381,340.98,0.29309,0.053065
0.162,4.2988,54.063,341.02,0.3006,0.053634
0.164,4.4076,54.746,341.06,0.30821,0.054204
0.166,4.5178,55.428,341.1,0.31591,0.054776
0.168,4.6293,56.11,341.14,0.32371,0.055348
0.17,4.7422,56.792,341.18,0.33161,0.055921
0.172,4.8565,57.475,341.22,0.3396,0.056495
0.174,4.9721,58.157,341.26,0.34768,0.057069
0.176,5.0891,58.84,341.29,0.35587,0.057645
0.178,5.2075,59.523,341.33,0.36414,0.058222
0.18,5.3272,60.205,341.37,0.37251,0.058799
0.182,5.4483,60.888,341.41,0.38098,0.059377
0.184,5.5708,61.571,341.45,0.38955,0.059956
0.186,5.6946,62.254,341.49,0.3982,0.060535
0.188,5.8198,62.937,341.53,0.40696,0.061116
0.19,5.9463,63.62,341.57,0.41581,0.061697
0.192,6.0743,64.303,341.6,0.42475,0.062278
0.194,6.2036,64.987,341.64,0.43379,0.062861
0.196,6.3342,65.67,341.68,0.44293,0.063444
0.198,6.4662,66.354,341.72,0.45216,0.064027
0.2,6.5996,67.037,341.76,0.46149,0.064612
0.202,6.7344,67.721,341.8,0.47091,0.065196
0.204,6.8705,68.404,341.84,0.48043,0.065782
0.206,7.008,69.088,341.87,0.49005,0.066368
0.208,7.1469,69.772,341.91,0.49976,0.066954
0.21,7.2871,70.456,341.95,0.50956,0.067542
0.212,7.4287,71.14,341.99,0.51946,0.068129
0.214,7.5716,71.824,342.03,0.52946,0.068717
0.216,7.716,72.508,342.07,0.53955,0.069306
0.218,7.8617,73.192,342.11,0.54974,0.069895
0.22,8.0087,73.876,342.14,0.56003,0.070485
0.222,8.1572,74.561,342.18,0.57041,0.071075
0.224,8.307,75.245,342.22,0.58088,0.071666
0.226,8.4582,75.93,342.26,0.59145,0.072257
0.228,8.6107,76.614,342.3,0.60212,0.072849
0.23,8.7646,77.299,342.34,0.61288,0.073441
0.232,8.9199,77.984,342.38,0.62374,0.074033
0.234,9.0766,78.669,342.41,0.63469,0.074626
0.236,9.2346,79.353,342.45,0.64574,0.07522
0.238,9.394,80.038,342.49,0.65689,0.075813
0.24,9.5547,80.724,342.53,0.66813,0.076407
0.242,9.7169,81.409,342.57,0.67947,0.077002
0.244,9.8804,82.094,342.61,0.6909,0.077597
0.246,10.045,82.779,342.64,0.70243,0.078192
0.248,10.211,83.465,342.68,0.71406,0.078788
0.25,10.379,84.15,342.72,0.72578,0.079384
0.252,10.548,84.835,342.76,0.73759,0.07998
0.254,10.718,85.521,342.8,0.74951,0.080577
0.256,10.89,86.207,342.84,0.76151,0.081174
0.258,11.063,86.892,342.87,0.77362,0.081772
0.26,11.238,87.578,342.91,0.78582,0.082369
0.262,11.414,88.264,342.95,0.79812,0.082967
0.264,11.591,88.95,342.99,0.81051,0.083566
0.266,11.769,89.636,343.03,0.823,0.084165
0.268,11.949,90.322,343.07,0.83558,0.084764
0.27,12.131,91.009,343.1,0.84826,0.085363
0.272,12.313,91.695,343.14,0.86103,0.085963
0.274,12.497,92.381,343.18,0.87391,0.086563
0.276,12.683,93.068,343.22,0.88687,0.087163
0.278,12.87,93.754,343.26,0.89994,0.087764
0.28,13.058,94.441,343.3,0.9131,0.088364
0.282,13.247,95.127,343.33,0.92635,0.088966
0.284,13.438,95.814,343.37,0.93971,0.089567
0.286,13.631,96.501,343.41,0.95315,0.090169
0.288,13.824,97.188,343.45,0.9667,0.090771
0.29,14.019,97.875,343.49,0.98034,0.091373
0.292,14.216,98.562,343.52,0.99407,0.091975
0.294,14.414,99.249,343.56,1.0079,0.092578
0.296,14.613,99.936,343.6,1.0218,0.093181
0.298,14.813,100.62,343.64,1.0359,0.093784
0.3,15.015,101.31,343.68,1.05,0.094388
0.302,15.219,102,343.71,1.0642,0.094991
0.304,15.423,102.69,343.75,1.0785,0.095595
0.306,15.629,103.37,343.79,1.0929,0.0962
0.308,15.837,104.06,343.83,1.1074,0.096804
0.31,16.046,104.75,343.87,1.122,0.097409
0.312,16.256,105.44,343.9,1.1367,0.098014
0.314,16.467,106.12,343.94,1.1515,0.098619
0.316,16.68,106.81,343.98,1.1664,0.099224
0.318,16.895,107.5,344.02,1.1814,0.09983
0.32,17.11,108.19,344.06,1.1965,0.10044
0.322,17.327,108.88,344.09,1.2117,0.10104
0.324,17.546,109.56,344.13,1.2269,0.10165
0.326,17.766,110.25,344.17,1.2423,0.10225
0.328,17.987,110.94,344.21,1.2578,0.10286
0.33,18.209,111.63,344.25,1.2733,0.10347
0.332,18.433,112.32,344.28,1.289,0.10407
0.334,18.659,113.01,344.32,1.3047,0.10468
0.336,18.885,113.7,344.36,1.3206,0.10529
0.338,19.114,114.38,344.4,1.3365,0.1059
0.34,19.343,115.07,344.43,1.3526,0.1065
0.342,19.574,115.76,344.47,1.3687,0.10711
0.344,19.806,116.45,344.51,1.385,0.10772
0.346,20.04,117.14,344.58,1.4013,0.10833
0.349,20.393,118.17,344.63,1.426,0.10924
0.3535,20.928,119.73,344.69,1.4634,0.11061
0.36025,21.744,122.05,344.79,1.5204,0.11267
0.37025,22.982,125.5,344.94,1.6069,0.11572
0.38025,24.254,128.95,345.13,1.6957,0.11877
0.39025,25.561,132.41,345.31,1.7869,0.12183
0.40025,26.902,135.86,345.5,1.8804,0.12489
0.41025,28.278,139.32,345.68,1.9763,0.12796
0.42025,29.688,142.78,345.86,2.0745,0.13102
0.43025,31.134,146.24,346.04,2.1752,0.1341
0.44025,32.613,149.7,346.22,2.2782,0.13717
0.45025,34.128,153.16,346.4,2.3836,0.14025
0.46025,35.677,156.63,346.57,2.4914,0.14333
0.47025,37.26,160.1,346.75,2.6017,0.14642
0.48025,38.878,163.57,346.92,2.7143,0.14951
0.49025,40.531,167.04,347.09,2.8295,0.1526
0.50025,42.219,170.51,347.26,2.9471,0.15569
0.51025,43.942,173.98,347.43,3.0672,0.15879
0.52025,45.699,177.46,347.59,3.1898,0.16189
0.53025,47.491,180.94,347.75,3.315,0.16499
0.54025,49.318,184.42,347.92,3.4427,0.1681
0.55025,51.179,187.9,348.07,3.573,0.1712
0.56025,53.076,191.38,348.23,3.706,0.17432
0.57025,55.007,194.86,348.38,3.8416,0.17743
0.58025,56.973,198.35,348.54,3.9799,0.18055
0.59025,58.974,201.84,348.68,4.121,0.18366
0.60025,61.01,205.33,348.83,4.2649,0.18678
0.61025,63.08,208.82,348.97,4.4115,0.18991
0.62025,65.186,212.31,349.11,4.5611,0.19303
0.63025,67.327,215.8,349.25,4.7135,0.19616
0.64025,69.502,219.29,349.39,4.869,0.19929
0.65025,71.712,222.79,349.52,5.0274,0.20243
0.66025,73.958,226.29,349.65,5.1889,0.20556
0.67025,76.238,229.78,349.77,5.3536,0.2087
0.68025,78.554,233.28,349.89,5.5214,0.21184
0.69025,80.904,236.78,350.01,5.6925,0.21499
0.70025,83.289,240.29,350.12,5.8669,0.21813
0.71025,85.71,243.79,350.23,6.0447,0.22128
0.72025,88.165,247.29,350.34,6.226,0.22443
0.73025,90.655,250.8,350.44,6.4107,0.22758
0.74025,93.181,254.3,350.54,6.5991,0.23073
0.75025,95.741,257.81,350.63,6.7912,0.23389
0.76025,98.337,261.32,350.72,6.987,0.23705
0.77025,100.97,264.83,350.8,7.1866,0.24021
0.78025,103.63,268.34,350.88,7.3902,0.24337
0.79025,106.33,271.85,350.96,7.5977,0.24654
0.80025,109.07,275.36,351.03,7.8094,0.2497
0.81025,111.84,278.87,351.09,8.0253,0.25287
0.82025,114.65,282.38,351.15,8.2454,0.25604
0.83025,117.49,285.89,351.2,8.4699,0.25922
0.84025,120.37,289.41,351.25,8.6989,0.26239
0.85025,123.28,292.92,351.29,8.9324,0.26557
0.86025,126.22,296.43,351.33,9.1706,0.26874
0.87025,129.21,299.95,351.36,9.4135,0.27193
0.88025,132.22,303.46,351.39,9.6614,0.27511
0.89025,135.28,306.98,351.41,9.9142,0.27829
0.90025,138.36,310.49,351.43,10.172,0.28148
0.91025,141.49,314.01,351.44,10.435,0.28466
0.92025,144.64,317.52,351.44,10.703,0.28785
0.93025,147.84,321.04,351.44,10.977,0.29104
0.94025,151.06,324.55,351.43,11.257,0.29423
0.95025,154.33,328.07,351.42,11.541,0.29743
0.96025,157.63,331.58,351.41,11.832,0.30062
0.97025,160.96,335.1,351.39,12.128,0.30382
0.98025,164.33,338.61,351.36,12.431,0.30702
0.99025,167.73,342.13,351.32,12.739,0.31022
1.0003,171.17,345.64,351.28,13.054,0.31342
1.0103,174.64,349.16,351.22,13.375,0.31662
1.0203,178.15,352.67,351.17,13.702,0.31982
1.0303,181.7,356.18,351.11,14.036,0.32303
1.0403,185.28,359.69,351.04,14.377,0.32623
1.0503,188.89,363.2,350.97,14.724,0.32944
1.0603,192.54,366.71,350.9,15.078,0.33265
1.0703,196.23,370.22,350.83,15.439,0.33586
1.0803,199.94,373.73,350.75,15.807,0.33907
1.0903,203.7,377.24,350.68,16.183,0.34228
1.1003,207.49,380.75,350.6,16.565,0.34549
1.1103,211.31,384.26,350.53,16.955,0.3487
1.1203,215.17,387.76,350.45,17.353,0.35192
1.1303,219.07,391.27,350.38,17.758,0.35513
1.1403,223,394.77,350.3,18.171,0.35835
1.1503,226.97,398.27,350.23,18.591,0.36156
1.1603,230.97,401.78,350.17,19.02,0.36478
1.1703,235,405.28,350.11,19.456,0.368
1.1803,239.07,408.78,350.05,19.901,0.37122
1.1903,243.18,412.28,350.01,20.353,0.37444
1.2003,247.32,415.78,349.97,20.814,0.37766
1.2103,251.49,419.28,349.93,21.283,0.38088
1.2203,255.7,422.78,349.91,21.761,0.38411
1.2303,259.95,426.28,349.89,22.247,0.38733
1.2403,264.23,429.78,349.89,22.741,0.39056
1.2503,268.54,433.28,349.9,23.244,0.39378
1.2603,272.89,436.78,349.91,23.755,0.39701
1.2703,277.28,440.29,349.94,24.276,0.40024
1.2803,281.7,443.79,349.99,24.804,0.40347
1.2903,286.16,447.29,350.05,25.342,0.4067
1.3003,290.65,450.79,350.12,25.888,0.40993
1.3103,295.17,454.29,350.2,26.443,0.41317
1.3203,299.73,457.8,350.3,27.007,0.4164
1.3303,304.33,461.3,350.42,27.579,0.41964
1.3403,308.96,464.81,350.55,28.16,0.42287
1.3503,313.62,468.31,350.7,28.75,0.42611
1.3603,318.32,471.82,350.86,29.348,0.42935
1.3703,323.06,475.33,351.03,29.956,0.43259
1.3803,327.83,478.84,351.22,30.572,0.43583
1.3903,332.64,482.36,351.42,31.196,0.43908
1.4003,337.48,485.87,351.63,31.829,0.44232
1.4103,342.35,489.39,351.86,32.471,0.44557
1.4203,347.27,492.91,352.1,33.121,0.44882
1.4303,352.21,496.44,352.35,33.779,0.45207
1.4403,357.19,499.96,352.61,34.446,0.45532
1.4503,362.21,503.49,352.88,35.121,0.45857
1.4603,367.26,507.02,353.15,35.804,0.46182
1.4703,372.35,510.56,353.44,36.496,0.46508
1.4803,377.48,514.09,353.73,37.195,0.46833
1.4903,382.63,517.63,354.02,37.902,0.47159
1.5003,387.83,521.18,354.31,38.617,0.47485
1.5103,393.06,524.72,354.61,39.34,0.47811
1.5203,398.32,528.27,354.91,40.071,0.48137
1.5303,403.62,531.82,355.2,40.808,0.48463
1.5403,408.96,535.38,355.5,41.554,0.48789
1.5503,414.33,538.93,355.79,42.306,0.49116
1.5603,419.74,542.49,356.08,43.066,0.49442
1.5703,425.18,546.06,356.36,43.832,0.49769
1.5803,430.66,549.62,356.64,44.606,0.50095
1.5903,436.17,553.19,356.91,45.386,0.50422
1.6003,441.72,556.76,357.18,46.174,0.50749
1.6103,447.31,560.34,357.44,46.967,0.51075
1.6203,452.93,563.92,357.69,47.767,0.51402
1.6303,458.59,567.49,357.94,48.574,0.51729
1.6403,464.28,571.08,358.17,49.387,0.52056
1.6503,470.01,574.66,358.4,50.205,0.52383
1.6603,475.77,578.25,358.61,51.03,0.52711
1.6703,481.57,581.83,358.81,51.861,0.53038
1.6803,487.41,585.42,359,52.698,0.53365
1.6903,493.28,589.02,359.18,53.54,0.53692
1.7003,499.19,592.61,359.34,54.388,0.5402
1.7103,505.13,596.21,359.49,55.242,0.54347
1.7203,511.11,599.8,359.63,56.101,0.54674
1.7303,517.13,603.4,359.75,56.966,0.55002
1.7403,523.18,607,359.86,57.836,0.55329
1.7503,529.27,610.6,359.95,58.711,0.55657
1.7603,535.39,614.2,360.03,59.592,0.55985
1.7703,541.55,617.8,360.09,60.478,0.56312
1.7803,547.75,621.4,360.13,61.369,0.5664
1.7903,553.98,625.01,360.16,62.266,0.56968
1.8003,560.25,628.61,360.17,63.168,0.57296
1.8103,566.55,632.21,360.16,64.075,0.57624
1.8203,572.89,635.81,360.14,64.988,0.57952
1.8303,579.27,639.42,360.1,65.906,0.5828
1.8403,585.68,643.02,360.05,66.83,0.58608
1.8503,592.13,646.62,359.97,67.76,0.58936
1.8603,598.61,650.22,359.88,68.695,0.59265
1.8703,605.13,653.82,359.77,69.635,0.59593
1.8803,611.69,657.42,359.65,70.582,0.59922
1.8903,618.28,661.01,359.51,71.534,0.6025
1.9003,624.91,664.61,359.36,72.493,0.60579
1.9103,631.58,668.2,359.19,73.457,0.60908
1.9203,638.28,671.8,359,74.428,0.61237
1.9303,645.01,675.39,358.81,75.406,0.61565
1.9403,651.78,678.97,358.6,76.39,0.61894
1.9503,658.59,682.56,358.38,77.38,0.62223
1.9603,665.43,686.14,358.16,78.378,0.62552
1.9703,672.31,689.73,357.93,79.382,0.62881
1.9803,679.23,693.31,357.68,80.393,0.63211
1.9903,686.18,696.88,357.44,81.412,0.6354
2.0003,693.17,700.46,357.2,82.438,0.63869
2.0103,700.19,704.03,356.95,83.472,0.64198
2.0203,707.25,707.6,356.71,84.513,0.64527
2.0303,714.34,711.16,356.47,85.562,0.64856
2.0403,721.47,714.73,356.24,86.619,0.65185
2.0503,728.64,718.29,356.03,87.683,0.65515
2.0603,735.84,721.85,355.83,88.756,0.65844
2.0702,743.07,725.41,355.65,89.838,0.66173
2.0802,750.34,728.97,355.49,90.927,0.66502
2.0902,757.65,732.52,355.35,92.025,0.66832
2.1002,764.99,736.08,355.24,93.131,0.67161
2.1102,772.37,739.63,355.16,94.245,0.6749
2.1202,779.79,743.18,355.11,95.369,0.67819
2.1302,787.24,746.73,355.09,96.5,0.68149
2.1402,794.72,750.29,355.1,97.64,0.68478
2.1502,802.24,753.84,355.14,98.789,0.68807
2.1602,809.8,757.39,355.22,99.946,0.69136
2.1702,817.39,760.94,355.32,101.11,0.69466
2.1802,825.02,764.5,355.44,102.29,0.69795
2.1902,832.68,768.05,355.6,103.47,0.70125
2.2002,840.38,771.61,355.77,104.66,0.70454
2.2102,848.11,775.17,355.96,105.86,0.70784
2.2202,855.88,778.73,356.17,107.06,0.71113
2.2302,863.69,782.3,356.39,108.28,0.71443
2.2402,871.53,785.86,356.61,109.5,0.71772
2.2502,879.4,789.43,356.84,110.73,0.72102
2.2602,887.32,793,357.07,111.97,0.72431
2.2702,895.26,796.58,357.3,113.21,0.72761
2.2802,903.25,800.15,357.52,114.47,0.7309
2.2902,911.27,803.73,357.73,115.72,0.7342
2.3002,919.32,807.31,357.93,116.99,0.7375
2.3102,927.41,810.89,358.12,118.26,0.74079
2.3202,935.54,814.47,358.29,119.54,0.74408
2.3302,943.7,818.06,358.45,120.83,0.74738
2.3402,951.9,821.64,358.58,122.12,0.75067
2.3502,960.14,825.23,358.69,123.42,0.75397
2.3602,968.41,828.82,358.78,124.73,0.75726
2.3702,976.71,832.41,358.84,126.04,0.76055
2.3802,985.05,836,358.87,127.35,0.76384
2.3902,993.43,839.59,358.87,128.68,0.76713
2.4002,1001.8,843.18,358.84,130.01,0.77042
2.4102,1010.3,846.77,358.77,131.34,0.77371
2.4202,1018.8,850.36,358.68,132.68,0.777
2.4302,1027.3,853.94,358.55,134.03,0.78029
2.4402,1035.9,857.53,358.39,135.38,0.78358
2.4502,1044.5,861.11,358.2,136.74,0.78687
2.4602,1053.1,864.69,357.98,138.1,0.79016
2.4702,1061.7,868.27,357.72,139.47,0.79344
2.4802,1070.4,871.85,357.44,140.85,0.79673
2.4902,1079.2,875.42,357.13,142.23,0.80002
2.5002,1088,879,356.79,143.62,0.8033
2.5102,1096.8,882.56,356.43,145.02,0.80659
2.5202,1105.6,886.13,356.04,146.42,0.80988
2.5302,1114.5,889.69,355.64,147.83,0.81316
2.5402,1123.4,893.24,355.23,149.24,0.81644
2.5502,1132.4,896.79,354.81,150.67,0.81973
2.5602,1141.3,900.34,354.38,152.1,0.82301
2.5702,1150.4,903.88,353.95,153.53,0.82629
2.5802,1159.4,907.42,353.52,154.98,0.82957
2.5902,1168.5,910.95,353.1,156.43,0.83285
2.6002,1177.6,914.48,352.7,157.89,0.83613
2.6102,1186.8,918.01,352.32,159.36,0.8394
2.6202,1196,921.53,351.97,160.84,0.84268
2.6302,1205.2,925.05,351.65,162.32,0.84595
2.6402,1214.5,928.57,351.37,163.82,0.84923
2.6502,1223.8,932.08,351.14,165.32,0.8525
2.6602,1233.1,935.59,350.95,166.83,0.85577
2.6702,1242.5,939.1,350.8,168.35,0.85904
2.6802,1251.9,942.61,350.69,169.87,0.8623
2.6902,1261.4,946.12,350.63,171.41,0.86557
2.7002,1270.8,949.63,350.61,172.95,0.86884
2.7102,1280.4,953.13,350.62,174.5,0.8721
2.7202,1289.9,956.64,350.65,176.06,0.87536
2.7302,1299.5,960.15,350.71,177.63,0.87862
2.7402,1309.1,963.66,350.77,179.21,0.88188
2.7502,1318.8,967.17,350.85,180.79,0.88514
2.7602,1328.5,970.68,350.92,182.38,0.8884
2.7702,1338.2,974.19,350.98,183.98,0.89165
2.7802,1347.9,977.7,351.03,185.58,0.8949
2.7902,1357.7,981.21,351.06,187.19,0.89815
2.8002,1367.6,984.72,351.11,188.81,0.9014
2.8102,1377.4,988.24,351.23,190.43,0.90465
2.8202,1387.3,991.75,351.32,192.07,0.90789
2.8302,1397.3,995.26,351.37,193.7,0.91114
2.8402,1407.2,998.78,351.38,195.35,0.91438
2.8502,1417.2,1002.3,351.35,197,0.91763
2.8602,1427.3,1005.8,351.28,198.65,0.92087
2.8702,1437.3,1009.3,351.17,200.32,0.92411
2.8802,1447.5,1012.8,351.01,201.98,0.92735
2.8902,1457.6,1016.3,350.8,203.66,0.93058
2.9002,1467.8,1019.9,350.54,205.34,0.93382
2.9102,1478,1023.4,350.24,207.03,0.93706
2.9202,1488.3,1026.9,349.89,208.72,0.94029
2.9302,1498.5,1030.4,349.51,210.42,0.94353
2.9402,1508.9,1033.8,349.09,212.12,0.94676
2.9502,1519.2,1037.3,348.64,213.83,0.94999
2.9602,1529.6,1040.8,348.13,215.55,0.95323
2.9702,1540,1044.3,347.6,217.28,0.95645
2.9802,1550.5,1047.8,347.07,219.01,0.95968
2.9902,1561,1051.2,346.52,220.75,0.96291
3.0002,1571.5,1054.7,345.99,222.49,0.96613
3.0102,1582.1,1058.2,345.46,224.25,0.96936
3.0202,1592.7,1061.6,344.95,226.01,0.97258
3.0302,1603.3,1065.1,344.48,227.78,0.9758
3.0402,1614,1068.5,344.06,229.56,0.97902
3.0502,1624.7,1072,343.68,231.34,0.98223
3.0602,1635.4,1075.4,343.36,233.14,0.98545
3.0702,1646.2,1078.8,343.11,234.94,0.98866
3.0802,1657,1082.3,342.91,236.75,0.99187
3.0902,1667.8,1085.7,342.78,238.57,0.99508
3.1002,1678.7,1089.1,342.7,240.4,0.99828
